

   Time         sum(rTop)     sum(rRoot)    sum(vTop)     sum(vRoot)     sum(vBot)    hTop       hRoot      hBot      A-level
    [T]           [L]           [L]           [L]           [L]            [L]        [L]         [L]       [L] 

    10.00100 -0.200000E-04  0.000000E+00 -0.199878E-04  0.000000E+00 -0.117254E-05  -8372.379      0.000  -1506.032       1
    20.00000 -0.379964E+01  0.000000E+00 -0.379964E+01  0.000000E+00 -0.112607E-01   -601.171      0.000  -1531.123       2
    30.00000 -0.599964E+01  0.000000E+00 -0.599964E+01  0.000000E+00 -0.223254E-01   -575.810      0.000  -1542.823       3
    40.00000 -0.669964E+01  0.000000E+00 -0.669964E+01  0.000000E+00 -0.332724E-01   -812.757      0.000  -1551.635       4
    50.00000 -0.739964E+01  0.000000E+00 -0.739964E+01  0.000000E+00 -0.441153E-01   -820.924      0.000  -1558.926       5
    60.00000 -0.799964E+01  0.000000E+00 -0.799964E+01  0.000000E+00 -0.548709E-01   -841.314      0.000  -1565.322       6
    70.00000 -0.859964E+01  0.000000E+00 -0.859964E+01  0.000000E+00 -0.655535E-01   -829.644      0.000  -1571.108       7
    80.00000 -0.889964E+01  0.000000E+00 -0.889964E+01  0.000000E+00 -0.761803E-01   -939.287      0.000  -1576.506       8
    90.00000 -0.909964E+01  0.000000E+00 -0.909964E+01  0.000000E+00 -0.867431E-01  -1028.001      0.000  -1581.503       9
   100.00000 -0.909964E+01  0.000000E+00 -0.909964E+01  0.000000E+00 -0.972422E-01  -1194.516      0.000  -1586.158      10
   110.00000 -0.919964E+01  0.000000E+00 -0.919964E+01  0.000000E+00 -0.107691E+00  -1214.318      0.000  -1590.576      11
   120.00000 -0.929964E+01  0.000000E+00 -0.929964E+01  0.000000E+00 -0.118083E+00  -1249.563      0.000  -1594.746      12
   130.00000 -0.929964E+01  0.000000E+00 -0.929964E+01  0.000000E+00 -0.128420E+00  -1363.402      0.000  -1598.706      13
   140.00000 -0.929964E+01  0.000000E+00 -0.929964E+01  0.000000E+00 -0.138711E+00  -1431.983      0.000  -1602.496      14
   150.00000 -0.929964E+01  0.000000E+00 -0.929964E+01  0.000000E+00 -0.148946E+00  -1483.478      0.000  -1606.087      15
   160.00000 -0.929964E+01  0.000000E+00 -0.929964E+01  0.000000E+00 -0.159138E+00  -1532.856      0.000  -1609.550      16
   170.00000 -0.939964E+01  0.000000E+00 -0.939964E+01  0.000000E+00 -0.169306E+00  -1461.927      0.000  -1612.941      17
   180.00000 -0.939964E+01  0.000000E+00 -0.939964E+01  0.000000E+00 -0.179430E+00  -1567.745      0.000  -1616.185      18
   190.00000 -0.939964E+01  0.000000E+00 -0.939964E+01  0.000000E+00 -0.189511E+00  -1622.123      0.000  -1619.299      19
   200.00000 -0.949964E+01  0.000000E+00 -0.949964E+01  0.000000E+00 -0.199561E+00  -1529.567      0.000  -1622.320      20
   210.00000 -0.949964E+01  0.000000E+00 -0.949964E+01  0.000000E+00 -0.209572E+00  -1637.992      0.000  -1625.222      21
   220.00000 -0.949964E+01  0.000000E+00 -0.949964E+01  0.000000E+00 -0.219545E+00  -1685.469      0.000  -1628.010      22
   230.00000 -0.949964E+01  0.000000E+00 -0.949964E+01  0.000000E+00 -0.229484E+00  -1722.342      0.000  -1630.696      23
   240.00000 -0.959964E+01  0.000000E+00 -0.959964E+01  0.000000E+00 -0.239397E+00  -1611.339      0.000  -1633.301      24
   250.00000 -0.959964E+01  0.000000E+00 -0.959964E+01  0.000000E+00 -0.249276E+00  -1714.762      0.000  -1635.799      25
end
