

   Time         sum(rTop)     sum(rRoot)    sum(vTop)     sum(vRoot)     sum(vBot)    hTop       hRoot      hBot      A-level
    [T]           [L]           [L]           [L]           [L]            [L]        [L]         [L]       [L] 

    10.00100 -0.200000E-04  0.000000E+00 -0.198223E-04  0.000000E+00 -0.130012E-05  -6293.907      0.000  -1409.807       1
    20.00000 -0.379964E+01  0.000000E+00 -0.379964E+01  0.000000E+00 -0.137789E-01   -154.292      0.000  -1433.763       2
    30.00000 -0.599964E+01  0.000000E+00 -0.599964E+01  0.000000E+00 -0.272094E-01   -123.293      0.000  -1444.206       3
    40.00000 -0.669964E+01  0.000000E+00 -0.669964E+01  0.000000E+00 -0.404040E-01   -220.358      0.000  -1452.088       4
    50.00000 -0.739964E+01  0.000000E+00 -0.739964E+01  0.000000E+00 -0.533963E-01   -218.331      0.000  -1458.625       5
    60.00000 -0.799964E+01  0.000000E+00 -0.799964E+01  0.000000E+00 -0.662189E-01   -223.593      0.000  -1464.347       6
    70.00000 -0.859964E+01  0.000000E+00 -0.859964E+01  0.000000E+00 -0.788996E-01   -217.594      0.000  -1469.525       7
    80.00000 -0.889964E+01  0.000000E+00 -0.889964E+01  0.000000E+00 -0.914708E-01   -270.876      0.000  -1474.362       8
    90.00000 -0.909965E+01  0.000000E+00 -0.909964E+01  0.000000E+00 -0.103919E+00   -311.865      0.000  -1478.850       9
   100.00000 -0.909965E+01  0.000000E+00 -0.909964E+01  0.000000E+00 -0.116241E+00   -401.683      0.000  -1483.041      10
   110.00000 -0.919965E+01  0.000000E+00 -0.919964E+01  0.000000E+00 -0.128465E+00   -410.073      0.000  -1487.026      11
   120.00000 -0.929965E+01  0.000000E+00 -0.929964E+01  0.000000E+00 -0.140576E+00   -426.209      0.000  -1490.804      12
   130.00000 -0.929965E+01  0.000000E+00 -0.929964E+01  0.000000E+00 -0.152581E+00   -488.705      0.000  -1494.412      13
   140.00000 -0.929965E+01  0.000000E+00 -0.929964E+01  0.000000E+00 -0.164492E+00   -533.352      0.000  -1497.887      14
   150.00000 -0.929965E+01  0.000000E+00 -0.929964E+01  0.000000E+00 -0.176291E+00   -566.517      0.000  -1501.211      15
   160.00000 -0.929965E+01  0.000000E+00 -0.929964E+01  0.000000E+00 -0.188003E+00   -596.289      0.000  -1504.448      16
   170.00000 -0.939964E+01  0.000000E+00 -0.939964E+01  0.000000E+00 -0.199666E+00   -554.336      0.000  -1507.636      17
   180.00000 -0.939964E+01  0.000000E+00 -0.939964E+01  0.000000E+00 -0.211236E+00   -614.504      0.000  -1510.740      18
   190.00000 -0.939964E+01  0.000000E+00 -0.939964E+01  0.000000E+00 -0.222718E+00   -652.628      0.000  -1513.786      19
   200.00000 -0.949964E+01  0.000000E+00 -0.949963E+01  0.000000E+00 -0.234132E+00   -597.370      0.000  -1516.817      20
   210.00000 -0.949964E+01  0.000000E+00 -0.949963E+01  0.000000E+00 -0.245458E+00   -661.916      0.000  -1519.980      21
   220.00000 -0.949964E+01  0.000000E+00 -0.949963E+01  0.000000E+00 -0.256726E+00   -697.243      0.000  -1523.565      22
   230.00000 -0.949964E+01  0.000000E+00 -0.949963E+01  0.000000E+00 -0.267953E+00   -724.915      0.000  -1526.859      23
   240.00000 -0.959964E+01  0.000000E+00 -0.959964E+01  0.000000E+00 -0.279148E+00   -656.339      0.000  -1529.991      24
   250.00000 -0.959964E+01  0.000000E+00 -0.959964E+01  0.000000E+00 -0.290301E+00   -718.548      0.000  -1532.963      25
end
