

   Time         sum(rTop)     sum(rRoot)    sum(vTop)     sum(vRoot)     sum(vBot)    hTop       hRoot      hBot      A-level
    [T]           [L]           [L]           [L]           [L]            [L]        [L]         [L]       [L] 

    10.00100  0.000000E+00  0.000000E+00 -0.264627E-08  0.000000E+00 -0.171097E-05  -6801.922      0.000  -1334.579       1
    20.00000  0.000000E+00  0.000000E+00  0.779904E-08  0.000000E+00 -0.158025E-01  -6802.472      0.000  -1357.800       2
    30.00000  0.000000E+00  0.000000E+00  0.286884E-07  0.000000E+00 -0.312525E-01  -6802.994      0.000  -1368.031       3
    40.00000 -0.250000E+01  0.000000E+00 -0.250000E+01  0.000000E+00 -0.465055E-01   -314.117      0.000  -1376.030       4
    50.00000 -0.420000E+01  0.000000E+00 -0.420000E+01  0.000000E+00 -0.615636E-01   -210.964      0.000  -1382.611       5
    60.00000 -0.580000E+01  0.000000E+00 -0.580000E+01  0.000000E+00 -0.764507E-01   -151.002      0.000  -1388.338       6
    70.00000 -0.780000E+01  0.000000E+00 -0.780000E+01  0.000000E+00 -0.912029E-01    -85.368      0.000  -1393.531       7
    80.00000 -0.102000E+02  0.000000E+00 -0.102000E+02  0.000000E+00 -0.105821E+00    -42.880      0.000  -1398.279       8
    90.00000 -0.123000E+02  0.000000E+00 -0.123000E+02  0.000000E+00 -0.120318E+00    -34.281      0.000  -1402.685       9
   100.00000 -0.140000E+02  0.000000E+00 -0.140000E+02  0.000000E+00 -0.134704E+00    -37.233      0.000  -1406.817      10
   110.00000 -0.146000E+02  0.000000E+00 -0.146000E+02  0.000000E+00 -0.148983E+00    -92.178      0.000  -1410.712      11
   120.00000 -0.152000E+02  0.000000E+00 -0.152000E+02  0.000000E+00 -0.163151E+00   -102.986      0.000  -1414.391      12
   130.00000 -0.162000E+02  0.000000E+00 -0.162000E+02  0.000000E+00 -0.177233E+00    -74.963      0.000  -1417.912      13
   140.00000 -0.192000E+02  0.000000E+00 -0.192000E+02  0.000000E+00 -0.191225E+00     -2.843      0.000  -1421.284      14
   150.00000 -0.235000E+02  0.000000E+00 -0.230859E+02  0.000000E+00 -0.205131E+00      0.000      0.000  -1424.517      15
   160.00000 -0.278000E+02  0.000000E+00 -0.268386E+02  0.000000E+00 -0.218954E+00      0.000      0.000  -1427.632      16
   170.00000 -0.280993E+02  0.000000E+00 -0.271414E+02  0.000000E+00 -0.232682E+00    -79.179      0.000  -1430.616      17
   180.00000 -0.280993E+02  0.000000E+00 -0.271414E+02  0.000000E+00 -0.246330E+00   -138.285      0.000  -1433.495      18
   190.00000 -0.280993E+02  0.000000E+00 -0.271414E+02  0.000000E+00 -0.259897E+00   -176.923      0.000  -1436.273      19
   200.00000 -0.280993E+02  0.000000E+00 -0.271414E+02  0.000000E+00 -0.273393E+00   -209.997      0.000  -1438.967      20
end
