

   Time         sum(rTop)     sum(rRoot)    sum(vTop)     sum(vRoot)     sum(vBot)    hTop       hRoot      hBot      A-level
    [T]           [L]           [L]           [L]           [L]            [L]        [L]         [L]       [L] 

    10.00100  0.000000E+00  0.000000E+00 -0.181174E-08  0.000000E+00 -0.127372E-05  -8372.947      0.000  -1451.743       1
    20.00000  0.000000E+00  0.000000E+00 -0.161998E-06  0.000000E+00 -0.126330E-01  -8373.449      0.000  -1475.177       2
    30.00000  0.000000E+00  0.000000E+00 -0.126636E-06  0.000000E+00 -0.249139E-01  -8373.931      0.000  -1485.580       3
    40.00000 -0.250000E+01  0.000000E+00 -0.250000E+01  0.000000E+00 -0.369962E-01   -366.874      0.000  -1493.687       4
    50.00000 -0.420000E+01  0.000000E+00 -0.420000E+01  0.000000E+00 -0.488804E-01   -249.968      0.000  -1500.390       5
    60.00000 -0.580000E+01  0.000000E+00 -0.580000E+01  0.000000E+00 -0.605910E-01   -182.838      0.000  -1506.308       6
    70.00000 -0.780000E+01  0.000000E+00 -0.780000E+01  0.000000E+00 -0.721596E-01   -108.958      0.000  -1511.767       7
    80.00000 -0.102000E+02  0.000000E+00 -0.102000E+02  0.000000E+00 -0.835838E-01    -59.400      0.000  -1516.947       8
    90.00000 -0.123000E+02  0.000000E+00 -0.123000E+02  0.000000E+00 -0.948815E-01    -49.947      0.000  -1522.576       9
   100.00000 -0.140000E+02  0.000000E+00 -0.140000E+02  0.000000E+00 -0.106109E+00    -52.706      0.000  -1528.060      10
   110.00000 -0.146000E+02  0.000000E+00 -0.146000E+02  0.000000E+00 -0.117273E+00   -112.865      0.000  -1533.019      11
   120.00000 -0.152000E+02  0.000000E+00 -0.152000E+02  0.000000E+00 -0.128373E+00   -124.244      0.000  -1537.608      12
   130.00000 -0.162000E+02  0.000000E+00 -0.162000E+02  0.000000E+00 -0.139424E+00    -93.748      0.000  -1541.954      13
   140.00000 -0.192000E+02  0.000000E+00 -0.192000E+02  0.000000E+00 -0.150424E+00     -9.793      0.000  -1546.074      14
   150.00000 -0.235000E+02  0.000000E+00 -0.231491E+02  0.000000E+00 -0.161378E+00      0.000      0.000  -1550.008      15
   160.00000 -0.278000E+02  0.000000E+00 -0.273806E+02  0.000000E+00 -0.172283E+00      0.000      0.000  -1553.766      16
   170.00000 -0.281000E+02  0.000000E+00 -0.276806E+02  0.000000E+00 -0.183141E+00    -83.861      0.000  -1557.349      17
   180.00000 -0.281000E+02  0.000000E+00 -0.276806E+02  0.000000E+00 -0.193951E+00   -146.699      0.000  -1560.765      18
   190.00000 -0.281000E+02  0.000000E+00 -0.276806E+02  0.000000E+00 -0.204721E+00   -189.393      0.000  -1564.048      19
   200.00000 -0.281000E+02  0.000000E+00 -0.276806E+02  0.000000E+00 -0.215448E+00   -225.163      0.000  -1567.192      20
end
