

   Time         sum(rTop)     sum(rRoot)    sum(vTop)     sum(vRoot)     sum(vBot)    hTop       hRoot      hBot      A-level
    [T]           [L]           [L]           [L]           [L]            [L]        [L]         [L]       [L] 

    10.00100 -0.250000E-03  0.000000E+00 -0.250063E-03  0.000000E+00 -0.112463E-05  -8365.770      0.000  -1451.742       1
    20.00000 -0.170008E+01  0.000000E+00 -0.170008E+01  0.000000E+00 -0.126424E-01  -1235.406      0.000  -1475.415       2
    30.00000 -0.330008E+01  0.000000E+00 -0.330008E+01  0.000000E+00 -0.249369E-01   -855.717      0.000  -1485.805       3
    40.00000 -0.530008E+01  0.000000E+00 -0.530008E+01  0.000000E+00 -0.370079E-01   -577.874      0.000  -1493.747       4
    50.00000 -0.770008E+01  0.000000E+00 -0.770008E+01  0.000000E+00 -0.488807E-01   -415.738      0.000  -1500.387       5
    60.00000 -0.980008E+01  0.000000E+00 -0.980008E+01  0.000000E+00 -0.605829E-01   -370.128      0.000  -1506.277       6
    70.00000 -0.115001E+02  0.000000E+00 -0.115001E+02  0.000000E+00 -0.721520E-01   -369.602      0.000  -1511.743       7
    80.00000 -0.121001E+02  0.000000E+00 -0.121001E+02  0.000000E+00 -0.835797E-01   -503.069      0.000  -1516.934       8
    90.00000 -0.127001E+02  0.000000E+00 -0.127001E+02  0.000000E+00 -0.948739E-01   -531.165      0.000  -1522.545       9
   100.00000 -0.137001E+02  0.000000E+00 -0.137001E+02  0.000000E+00 -0.106101E+00   -462.366      0.000  -1528.029      10
   110.00000 -0.167001E+02  0.000000E+00 -0.167001E+02  0.000000E+00 -0.117265E+00   -236.936      0.000  -1532.996      11
   120.00000 -0.210001E+02  0.000000E+00 -0.210001E+02  0.000000E+00 -0.128370E+00   -140.063      0.000  -1537.613      12
   130.00000 -0.253001E+02  0.000000E+00 -0.253001E+02  0.000000E+00 -0.139419E+00   -112.337      0.000  -1541.948      13
   140.00000 -0.256001E+02  0.000000E+00 -0.256001E+02  0.000000E+00 -0.150418E+00   -266.961      0.000  -1546.066      14
   150.00000 -0.256001E+02  0.000000E+00 -0.256001E+02  0.000000E+00 -0.161363E+00   -355.914      0.000  -1549.965      15
end
