

   Time         sum(rTop)     sum(rRoot)    sum(vTop)     sum(vRoot)     sum(vBot)    hTop       hRoot      hBot      A-level
    [T]           [L]           [L]           [L]           [L]            [L]        [L]         [L]       [L] 

    10.00100 -0.600000E-04  0.000000E+00 -0.599573E-04  0.000000E+00 -0.586278E-06  -4884.048      0.000  -1415.007       1
    20.00000 -0.899970E+00  0.000000E+00 -0.899970E+00  0.000000E+00 -0.895414E-02  -1642.923      0.000  -1406.568       2
    30.00000 -0.149997E+01  0.000000E+00 -0.149997E+01  0.000000E+00 -0.179849E-01  -1471.600      0.000  -1402.519       3
    40.00000 -0.239997E+01  0.000000E+00 -0.239997E+01  0.000000E+00 -0.270707E-01  -1068.225      0.000  -1399.444       4
    50.00000 -0.499997E+01  0.000000E+00 -0.499997E+01  0.000000E+00 -0.362010E-01   -452.267      0.000  -1396.852       5
    60.00000 -0.148000E+02  0.000000E+00 -0.148000E+02  0.000000E+00 -0.453701E-01    -35.241      0.000  -1394.557       6
    70.00000 -0.283003E+02  0.000000E+00 -0.280834E+02  0.000000E+00 -0.545622E-01      0.000      0.000  -1392.438       7
    80.00000 -0.441003E+02  0.000000E+00 -0.417291E+02  0.000000E+00 -0.638013E-01      0.000      0.000  -1390.543       8
    90.00000 -0.590003E+02  0.000000E+00 -0.538376E+02  0.000000E+00 -0.730681E-01      0.000      0.000  -1388.762       9
   100.00000 -0.665001E+02  0.000000E+00 -0.613365E+02  0.000000E+00 -0.823619E-01     -5.188      0.000  -1387.073      10
   110.00000 -0.695001E+02  0.000000E+00 -0.643365E+02  0.000000E+00 -0.916894E-01    -34.110      0.000  -1385.484      11
   120.00000 -0.711001E+02  0.000000E+00 -0.659365E+02  0.000000E+00 -0.101043E+00    -66.204      0.000  -1383.963      12
   130.00000 -0.720001E+02  0.000000E+00 -0.668365E+02  0.000000E+00 -0.110422E+00    -97.917      0.000  -1382.505      13
   140.00000 -0.723001E+02  0.000000E+00 -0.671364E+02  0.000000E+00 -0.119825E+00   -139.593      0.000  -1381.105      14
   150.00000 -0.724000E+02  0.000000E+00 -0.672364E+02  0.000000E+00 -0.129251E+00   -173.006      0.000  -1379.757      15
   160.00000 -0.724000E+02  0.000000E+00 -0.672364E+02  0.000000E+00 -0.138701E+00   -201.825      0.000  -1378.459      16
   170.00000 -0.725000E+02  0.000000E+00 -0.673364E+02  0.000000E+00 -0.148171E+00   -214.859      0.000  -1377.202      17
   180.00000 -0.725000E+02  0.000000E+00 -0.673364E+02  0.000000E+00 -0.157663E+00   -237.991      0.000  -1375.990      18
   190.00000 -0.726000E+02  0.000000E+00 -0.674363E+02  0.000000E+00 -0.167173E+00   -245.359      0.000  -1374.816      19
   200.00000 -0.727000E+02  0.000000E+00 -0.675363E+02  0.000000E+00 -0.176704E+00   -256.061      0.000  -1373.684      20
   210.00000 -0.727000E+02  0.000000E+00 -0.675363E+02  0.000000E+00 -0.186256E+00   -276.280      0.000  -1372.593      21
end
