

   Time         sum(rTop)     sum(rRoot)    sum(vTop)     sum(vRoot)     sum(vBot)    hTop       hRoot      hBot      A-level
    [T]           [L]           [L]           [L]           [L]            [L]        [L]         [L]       [L] 

    10.00100 -0.300000E-03  0.000000E+00 -0.299814E-03  0.000000E+00 -0.164995E-05  -8460.802      0.000  -1302.499       1
    20.00000 -0.220008E+01  0.000000E+00 -0.220008E+01  0.000000E+00 -0.167569E-01   -423.014      0.000  -1322.314       2
    30.00000 -0.540008E+01  0.000000E+00 -0.540008E+01  0.000000E+00 -0.332272E-01   -106.183      0.000  -1331.015       3
    40.00000 -0.880008E+01  0.000000E+00 -0.880008E+01  0.000000E+00 -0.494994E-01    -37.245      0.000  -1337.613       4
    50.00000 -0.117001E+02  0.000000E+00 -0.117001E+02  0.000000E+00 -0.656120E-01    -23.140      0.000  -1343.159       5
    60.00000 -0.146001E+02  0.000000E+00 -0.146001E+02  0.000000E+00 -0.815864E-01    -10.320      0.000  -1348.036       6
    70.00000 -0.198001E+02  0.000000E+00 -0.190480E+02  0.000000E+00 -0.974471E-01      0.000      0.000  -1352.470       7
    80.00000 -0.241000E+02  0.000000E+00 -0.228820E+02  0.000000E+00 -0.113193E+00      0.000      0.000  -1356.528       8
    90.00000 -0.285000E+02  0.000000E+00 -0.270622E+02  0.000000E+00 -0.128835E+00      0.000      0.000  -1360.302       9
   100.00000 -0.323000E+02  0.000000E+00 -0.310509E+02  0.000000E+00 -0.144383E+00     -0.434      0.000  -1363.847      10
   110.00000 -0.335000E+02  0.000000E+00 -0.322507E+02  0.000000E+00 -0.159831E+00    -27.665      0.000  -1367.176      11
   120.00000 -0.341000E+02  0.000000E+00 -0.328507E+02  0.000000E+00 -0.175191E+00    -63.096      0.000  -1370.337      12
   130.00000 -0.342000E+02  0.000000E+00 -0.329507E+02  0.000000E+00 -0.190469E+00   -121.267      0.000  -1373.350      13
   140.00000 -0.342000E+02  0.000000E+00 -0.329507E+02  0.000000E+00 -0.205661E+00   -166.515      0.000  -1376.225      14
   150.00000 -0.342000E+02  0.000000E+00 -0.329507E+02  0.000000E+00 -0.220772E+00   -199.216      0.000  -1378.976      15
   160.00000 -0.342000E+02  0.000000E+00 -0.329507E+02  0.000000E+00 -0.235812E+00   -227.503      0.000  -1381.620      16
   170.00000 -0.342000E+02  0.000000E+00 -0.329507E+02  0.000000E+00 -0.250766E+00   -252.842      0.000  -1384.152      17
   180.00000 -0.343000E+02  0.000000E+00 -0.330507E+02  0.000000E+00 -0.265682E+00   -249.860      0.000  -1386.629      18
   190.00000 -0.343000E+02  0.000000E+00 -0.330507E+02  0.000000E+00 -0.280527E+00   -285.551      0.000  -1389.015      19
   200.00000 -0.344000E+02  0.000000E+00 -0.331507E+02  0.000000E+00 -0.295315E+00   -278.425      0.000  -1391.329      20
   210.00000 -0.344000E+02  0.000000E+00 -0.331507E+02  0.000000E+00 -0.310036E+00   -315.766      0.000  -1393.563      21
   220.00000 -0.344000E+02  0.000000E+00 -0.331507E+02  0.000000E+00 -0.324694E+00   -339.304      0.000  -1395.722      22
   230.00000 -0.345000E+02  0.000000E+00 -0.332507E+02  0.000000E+00 -0.339305E+00   -321.987      0.000  -1397.828      23
   240.00000 -0.345000E+02  0.000000E+00 -0.332507E+02  0.000000E+00 -0.353856E+00   -358.535      0.000  -1399.865      24
end
