

   Time         sum(rTop)     sum(rRoot)    sum(vTop)     sum(vRoot)     sum(vBot)    hTop       hRoot      hBot      A-level
    [T]           [L]           [L]           [L]           [L]            [L]        [L]         [L]       [L] 

    10.00100 -0.700000E-04  0.000000E+00 -0.699048E-04  0.000000E+00 -0.105217E-05  -4794.802      0.000  -1278.948       1
    20.00000 -0.120989E+02  0.000000E+00 -0.112103E+02  0.000000E+00 -0.108066E-01      0.000      0.000  -1302.778       2
    30.00000 -0.207989E+02  0.000000E+00 -0.172649E+02  0.000000E+00 -0.214150E-01      0.000      0.000  -1313.334       3
    40.00000 -0.248989E+02  0.000000E+00 -0.213652E+02  0.000000E+00 -0.318770E-01     -1.796      0.000  -1321.316       4
    50.00000 -0.260989E+02  0.000000E+00 -0.225652E+02  0.000000E+00 -0.422153E-01    -75.018      0.000  -1327.966       5
    60.00000 -0.263989E+02  0.000000E+00 -0.228652E+02  0.000000E+00 -0.524510E-01   -163.660      0.000  -1333.806       6
    70.00000 -0.267989E+02  0.000000E+00 -0.232652E+02  0.000000E+00 -0.625952E-01   -187.754      0.000  -1339.071       7
    80.00000 -0.268989E+02  0.000000E+00 -0.233652E+02  0.000000E+00 -0.726554E-01   -254.213      0.000  -1343.897       8
    90.00000 -0.269989E+02  0.000000E+00 -0.234652E+02  0.000000E+00 -0.826317E-01   -289.790      0.000  -1348.347       9
   100.00000 -0.271989E+02  0.000000E+00 -0.236652E+02  0.000000E+00 -0.925426E-01   -297.563      0.000  -1352.545      10
   110.00000 -0.274989E+02  0.000000E+00 -0.239652E+02  0.000000E+00 -0.102385E+00   -290.586      0.000  -1356.504      11
   120.00000 -0.277989E+02  0.000000E+00 -0.242652E+02  0.000000E+00 -0.112158E+00   -294.169      0.000  -1360.242      12
   130.00000 -0.281990E+02  0.000000E+00 -0.246652E+02  0.000000E+00 -0.121875E+00   -278.213      0.000  -1363.823      13
   140.00000 -0.286989E+02  0.000000E+00 -0.251652E+02  0.000000E+00 -0.131533E+00   -256.774      0.000  -1367.248      14
   150.00000 -0.292990E+02  0.000000E+00 -0.257652E+02  0.000000E+00 -0.141130E+00   -233.008      0.000  -1370.524      15
   160.00000 -0.297990E+02  0.000000E+00 -0.262652E+02  0.000000E+00 -0.150669E+00   -237.048      0.000  -1373.670      16
   170.00000 -0.301990E+02  0.000000E+00 -0.266652E+02  0.000000E+00 -0.160164E+00   -252.426      0.000  -1376.727      17
   180.00000 -0.304990E+02  0.000000E+00 -0.269652E+02  0.000000E+00 -0.169610E+00   -274.467      0.000  -1379.683      18
   190.00000 -0.307990E+02  0.000000E+00 -0.272652E+02  0.000000E+00 -0.179001E+00   -283.484      0.000  -1382.539      19
   200.00000 -0.310990E+02  0.000000E+00 -0.275652E+02  0.000000E+00 -0.188343E+00   -289.770      0.000  -1385.306      20
   210.00000 -0.311990E+02  0.000000E+00 -0.276652E+02  0.000000E+00 -0.197645E+00   -340.001      0.000  -1388.011      21
   220.00000 -0.313990E+02  0.000000E+00 -0.278652E+02  0.000000E+00 -0.206903E+00   -338.104      0.000  -1390.642      22
   230.00000 -0.314990E+02  0.000000E+00 -0.279652E+02  0.000000E+00 -0.216118E+00   -370.278      0.000  -1393.208      23
   240.00000 -0.315990E+02  0.000000E+00 -0.280652E+02  0.000000E+00 -0.225285E+00   -389.205      0.000  -1395.707      24
   250.00000 -0.317990E+02  0.000000E+00 -0.282652E+02  0.000000E+00 -0.234415E+00   -374.375      0.000  -1398.153      25
   260.00000 -0.318990E+02  0.000000E+00 -0.283652E+02  0.000000E+00 -0.243505E+00   -404.282      0.000  -1400.545      26
   270.00000 -0.318990E+02  0.000000E+00 -0.283652E+02  0.000000E+00 -0.252550E+00   -450.705      0.000  -1402.882      27
   280.00000 -0.319990E+02  0.000000E+00 -0.284652E+02  0.000000E+00 -0.261560E+00   -442.496      0.000  -1405.177      28
   290.00000 -0.319990E+02  0.000000E+00 -0.343576E+02  0.000000E+00 -0.270525E+00      0.000      0.000  -1407.395      29
end
